 #        time                      h  [L]                   theta [-]       Darcian flow [L.T^{-1}]   in    x         z              directions   cumulative flux
 #-----------------------------------------------------------------------------------------------

     0.500000000000E+000    -0.993398552871E+002     0.250759995619E+000    -0.522441462399E-002    -0.919688000489E-001     0.460585352856E-001
     0.100000000000E+001    -0.992169456092E+002     0.250974059665E+000    -0.600760227998E-002    -0.892132697788E-001     0.907661934377E-001
     0.150000000000E+001    -0.991721961766E+002     0.251052044945E+000     0.118511600545E-003    -0.905213034743E-001     0.136026883964E+000
     0.200000000000E+001    -0.991358558251E+002     0.251115395498E+000    -0.460429949299E-002    -0.914396002514E-001     0.181804607990E+000
     0.250000000000E+001    -0.990695113943E+002     0.251231201184E+000    -0.697483539088E-002    -0.938171469116E-001     0.228842638836E+000
     0.300000000000E+001    -0.988918103335E+002     0.251541667116E+000    -0.120218587477E-001    -0.100875567881E+000     0.279637336598E+000
     0.350000000000E+001    -0.984069698304E+002     0.252391753583E+000    -0.692865691975E-002    -0.120734738454E+000     0.340104028578E+000
     0.400000000000E+001    -0.971192677926E+002     0.254671217292E+000    -0.889716622878E-002    -0.173418123481E+000     0.426927131953E+000
     0.450000000000E+001    -0.939836297691E+002     0.260354663267E+000    -0.252228581607E-001    -0.313703542252E+000     0.584285087738E+000
     0.500000000000E+001    -0.870740764875E+002     0.273561275265E+000    -0.600466485860E-001    -0.690679065757E+000     0.930927256221E+000
     0.550000000000E+001    -0.744284368504E+002     0.300239776425E+000    -0.125290509937E+000    -0.170054848032E+001     0.178350611560E+001
     0.600000000000E+001    -0.573800501229E+002     0.341065189844E+000    -0.207111360604E+000    -0.376755186582E+001     0.367012625339E+001
     0.650000000000E+001    -0.423386461891E+002     0.379868404744E+000    -0.199287732115E+000    -0.548031531917E+001     0.641209505326E+001
     0.700000000000E+001    -0.329741108357E+002     0.403357806936E+000    -0.169794200728E+000    -0.561309774758E+001     0.921992768691E+001
     0.750000000000E+001    -0.273125801842E+002     0.416408796465E+000    -0.207751538232E+000    -0.549974739320E+001     0.119717626243E+002
     0.800000000000E+001    -0.232828469343E+002     0.424836365181E+000    -0.244287341614E+000    -0.552344298032E+001     0.147361838414E+002
     0.850000000000E+001    -0.200887782108E+002     0.430863542881E+000    -0.237737257941E+000    -0.559100471619E+001     0.175342122875E+002
     0.900000000000E+001    -0.174359550933E+002     0.435356312786E+000    -0.249125878028E+000    -0.566076777994E+001     0.203673358094E+002
     0.950000000000E+001    -0.151737942288E+002     0.438777949620E+000    -0.249814402309E+000    -0.572490613978E+001     0.232325128347E+002
     0.100000000000E+002    -0.132094247504E+002     0.441418313187E+000    -0.242401117912E+000    -0.578256047048E+001     0.261263322786E+002
     0.105000000000E+002    -0.114795957629E+002     0.443473119435E+000    -0.242349404193E+000    -0.583256487183E+001     0.290451310991E+002
     0.110000000000E+002    -0.994139372659E+001     0.445078384831E+000    -0.245750418988E+000    -0.587583960619E+001     0.319856193386E+002
     0.115000000000E+002    -0.856303787886E+001     0.446333113218E+000    -0.249986069099E+000    -0.591329094748E+001     0.349449056911E+002
     0.120000000000E+002    -0.732027521668E+001     0.447311305113E+000    -0.254213279430E+000    -0.594569311165E+001     0.379204682837E+002
     0.125000000000E+002    -0.619385716593E+001     0.448070084998E+000    -0.257372223323E+000    -0.597363135892E+001     0.409100548802E+002
     0.130000000000E+002    -0.516802237687E+001     0.448653673191E+000    -0.259414013350E+000    -0.599756151226E+001     0.439116394502E+002
     0.135000000000E+002    -0.422946450207E+001     0.449096947972E+000    -0.260463193461E+000    -0.601778471170E+001     0.469233488449E+002
     0.140000000000E+002    -0.336715041935E+001     0.449426846086E+000    -0.260954811501E+000    -0.603456705581E+001     0.499434521943E+002
     0.145000000000E+002    -0.257216135654E+001     0.449665294371E+000    -0.260895365837E+000    -0.604826869250E+001     0.529703986990E+002
     0.150000000000E+002    -0.183731278614E+001     0.449828988969E+000    -0.260471546739E+000    -0.605923445841E+001     0.560028138935E+002
     0.155000000000E+002    -0.115671543191E+001     0.449932046277E+000    -0.259683582798E+000    -0.606771478149E+001     0.590394484712E+002
     0.160000000000E+002    -0.525442796447E+000     0.449985738955E+000    -0.258962775180E+000    -0.607384354478E+001     0.620791292573E+002
     0.165000000000E+002     0.605880061009E-001     0.450000000000E+000    -0.256935384884E+000    -0.606643529081E+001     0.651150662185E+002
     0.170000000000E+002     0.604610899797E+000     0.450000000000E+000    -0.250638538158E+000    -0.597014523843E+001     0.681027682554E+002
     0.175000000000E+002     0.110892212049E+001     0.450000000000E+000    -0.252666653179E+000    -0.592538769517E+001     0.710681543928E+002
     0.180000000000E+002     0.159372510611E+001     0.450000000000E+000    -0.253227277328E+000    -0.591853951585E+001     0.740301315219E+002
     0.185000000000E+002     0.206752272752E+001     0.450000000000E+000    -0.253016317287E+000    -0.592254953779E+001     0.769941073267E+002
     0.190000000000E+002     0.253291022764E+001     0.450000000000E+000    -0.253711698832E+000    -0.593034361812E+001     0.799619914659E+002
     0.195000000000E+002     0.299167403424E+001     0.450000000000E+000    -0.255205513007E+000    -0.593927376562E+001     0.829343685751E+002
     0.200000000000E+002     0.344519260188E+001     0.450000000000E+000    -0.253693276956E+000    -0.594804014890E+001     0.859110925248E+002
     0.205000000000E+002     0.389500905057E+001     0.450000000000E+000    -0.258162553724E+000    -0.595500407653E+001     0.888913912286E+002
     0.210000000000E+002     0.434130310890E+001     0.450000000000E+000    -0.256993347251E+000    -0.596132848503E+001     0.918748239364E+002
     0.215000000000E+002     0.478326540372E+001     0.450000000000E+000    -0.259102028210E+000    -0.596721601458E+001     0.948612432315E+002
     0.220000000000E+002     0.522151212949E+001     0.450000000000E+000    -0.259303033954E+000    -0.597288559580E+001     0.978504990086E+002
     0.225000000000E+002     0.565574415952E+001     0.450000000000E+000    -0.259875327511E+000    -0.597844697294E+001     0.100842545273E+003
     0.230000000000E+002     0.608609148806E+001     0.450000000000E+000    -0.260312694986E+000    -0.598376231734E+001     0.103837256201E+003
     0.235000000000E+002     0.651257080895E+001     0.450000000000E+000    -0.261062811779E+000    -0.598886725610E+001     0.106834533499E+003
     0.240000000000E+002     0.693522783749E+001     0.450000000000E+000    -0.261441356574E+000    -0.599398004729E+001     0.109834373011E+003
     0.245000000000E+002     0.735402708511E+001     0.450000000000E+000    -0.261273000489E+000    -0.599901010114E+001     0.112836721499E+003
     0.250000000000E+002     0.776889443218E+001     0.450000000000E+000    -0.261817142876E+000    -0.600395044362E+001     0.115841549662E+003
     0.255000000000E+002     0.817947081417E+001     0.450000000000E+000    -0.261895561204E+000    -0.600906469320E+001     0.118848934230E+003
     0.260000000000E+002     0.858750727262E+001     0.450000000000E+000    -0.277369257344E+000    -0.601257927325E+001     0.121858421031E+003
     0.265000000000E+002     0.898706406172E+001     0.450000000000E+000    -0.261650266967E+000    -0.602026044938E+001     0.124871392851E+003
     0.270000000000E+002     0.938165126442E+001     0.450000000000E+000    -0.261345051422E+000    -0.602659530844E+001     0.127887522500E+003
     0.275000000000E+002     0.976952042965E+001     0.450000000000E+000    -0.261254227205E+000    -0.603354215576E+001     0.130907120351E+003
     0.280000000000E+002     0.101498382288E+002     0.450000000000E+000    -0.261261746070E+000    -0.604116385177E+001     0.133930525649E+003
     0.285000000000E+002     0.105219111062E+002     0.450000000000E+000    -0.261366091020E+000    -0.604950986438E+001     0.136958102313E+003
     0.290000000000E+002     0.108852246240E+002     0.450000000000E+000    -0.261389862990E+000    -0.605859288216E+001     0.139990216772E+003
     0.295000000000E+002     0.112393595397E+002     0.450000000000E+000    -0.261396596607E+000    -0.606826925935E+001     0.143027165075E+003
     0.300000000000E+002     0.115840318023E+002     0.450000000000E+000    -0.261544992916E+000    -0.607850004783E+001     0.146069227230E+003
     0.305000000000E+002     0.119190594797E+002     0.450000000000E+000    -0.261687467141E+000    -0.608919632659E+001     0.149116635647E+003
     0.310000000000E+002     0.122443498486E+002     0.450000000000E+000    -0.261886686519E+000    -0.610020457899E+001     0.152169547394E+003
     0.315000000000E+002     0.125599262720E+002     0.450000000000E+000    -0.262032039345E+000    -0.611147445631E+001     0.155228092016E+003
     0.320000000000E+002     0.128659253228E+002     0.450000000000E+000    -0.262275175355E+000    -0.612286427365E+001     0.158292331529E+003
     0.325000000000E+002     0.131624900471E+002     0.450000000000E+000    -0.262101126766E+000    -0.613438402574E+001     0.161362321935E+003
     0.330000000000E+002     0.134497904800E+002     0.450000000000E+000    -0.262445005091E+000    -0.614580133032E+001     0.164438023131E+003
     0.335000000000E+002     0.137280151023E+002     0.450000000000E+000    -0.263221071272E+000    -0.615704084744E+001     0.167519355526E+003
     0.340000000000E+002     0.139973771343E+002     0.450000000000E+000    -0.263463436890E+000    -0.616823793996E+001     0.170606286537E+003
     0.345000000000E+002     0.142581251074E+002     0.450000000000E+000    -0.263690793805E+000    -0.617931149135E+001     0.173698754134E+003
     0.350000000000E+002     0.145105127953E+002     0.450000000000E+000    -0.263934403458E+000    -0.619010657319E+001     0.176796619559E+003
     0.355000000000E+002     0.147548032053E+002     0.450000000000E+000    -0.264201763072E+000    -0.620070039527E+001     0.179899782782E+003
     0.360000000000E+002     0.149912563598E+002     0.450000000000E+000    -0.264465003495E+000    -0.621101222257E+001     0.183008102849E+003
     0.365000000000E+002     0.152201397959E+002     0.450000000000E+000    -0.264264766999E+000    -0.622121671346E+001     0.186121516300E+003
     0.370000000000E+002     0.154416908875E+002     0.450000000000E+000    -0.264993390291E+000    -0.623088320892E+001     0.189239774109E+003
     0.375000000000E+002     0.156561561481E+002     0.450000000000E+000    -0.264778980081E+000    -0.624052723760E+001     0.192362845038E+003
     0.380000000000E+002     0.158637510293E+002     0.450000000000E+000    -0.265043877788E+000    -0.624972726962E+001     0.195490517464E+003
     0.385000000000E+002     0.160646740498E+002     0.450000000000E+000    -0.265758082289E+000    -0.625860616784E+001     0.198622640487E+003
     0.390000000000E+002     0.162591571652E+002     0.450000000000E+000    -0.265512654551E+000    -0.626734320997E+001     0.201759122907E+003
     0.395000000000E+002     0.164474203555E+002     0.450000000000E+000    -0.265748264351E+000    -0.627576548319E+001     0.204899817676E+003
     0.400000000000E+002     0.166296778645E+002     0.450000000000E+000    -0.265958887736E+000    -0.628393750801E+001     0.208044599256E+003
     0.405000000000E+002     0.168061379307E+002     0.450000000000E+000    -0.266654556037E+000    -0.629161763064E+001     0.211193232176E+003
     0.410000000000E+002     0.169770206671E+002     0.450000000000E+000    -0.266548557185E+000    -0.629935828044E+001     0.214345729713E+003
     0.415000000000E+002     0.171425105415E+002     0.450000000000E+000    -0.266831047358E+000    -0.630669628297E+001     0.217501898942E+003
     0.420000000000E+002     0.173027738553E+002     0.450000000000E+000    -0.267561402469E+000    -0.631371630506E+001     0.220661590489E+003
     0.425000000000E+002     0.174579949954E+002     0.450000000000E+000    -0.267406272111E+000    -0.632063886786E+001     0.223824736937E+003
     0.430000000000E+002     0.176083198491E+002     0.450000000000E+000    -0.268019396257E+000    -0.632717233640E+001     0.226991160162E+003
     0.435000000000E+002     0.177539258130E+002     0.450000000000E+000    -0.267853915691E+000    -0.633373611974E+001     0.230160858845E+003
     0.440000000000E+002     0.178949590330E+002     0.450000000000E+000    -0.268071640118E+000    -0.633994810877E+001     0.233333665348E+003
     0.445000000000E+002     0.180315534564E+002     0.450000000000E+000    -0.268699246143E+000    -0.634583330665E+001     0.236509425086E+003
     0.450000000000E+002     0.181638718464E+002     0.450000000000E+000    -0.268492247957E+000    -0.635173226530E+001     0.239688127292E+003
     0.455000000000E+002     0.182920323823E+002     0.450000000000E+000    -0.269104050439E+000    -0.635727852717E+001     0.242869613079E+003
     0.460000000000E+002     0.184161809694E+002     0.450000000000E+000    -0.269230557252E+000    -0.636274750033E+001     0.246053833582E+003
     0.465000000000E+002     0.185364510713E+002     0.450000000000E+000    -0.269420102728E+000    -0.636798556864E+001     0.249240674784E+003
     0.470000000000E+002     0.186529715758E+002     0.450000000000E+000    -0.269551055655E+000    -0.637306983254E+001     0.252430058614E+003
     0.475000000000E+002     0.187658711679E+002     0.450000000000E+000    -0.269687301071E+000    -0.637801706542E+001     0.255621916730E+003
     0.480000000000E+002     0.188752827255E+002     0.450000000000E+000    -0.269376507788E+000    -0.638289010086E+001     0.258816202634E+003
     0.485000000000E+002     0.189813031671E+002     0.450000000000E+000    -0.269923387718E+000    -0.638738801263E+001     0.262012747028E+003
     0.490000000000E+002     0.190840532918E+002     0.450000000000E+000    -0.270033987274E+000    -0.639183691788E+001     0.265211516227E+003
     0.495000000000E+002     0.191836557978E+002     0.450000000000E+000    -0.269777833652E+000    -0.639619052964E+001     0.268412454893E+003
     0.500000000000E+002     0.192801918176E+002     0.450000000000E+000    -0.270309889049E+000    -0.640030269573E+001     0.271615459031E+003
     0.505000000000E+002     0.193737792166E+002     0.450000000000E+000    -0.270096376038E+000    -0.640438580953E+001     0.274820498408E+003
     0.510000000000E+002     0.194644901505E+002     0.450000000000E+000    -0.270648725005E+000    -0.640819561573E+001     0.278027452640E+003
     0.515000000000E+002     0.195524225443E+002     0.450000000000E+000    -0.270841218125E+000    -0.641190020819E+001     0.281236261580E+003
     0.520000000000E+002     0.196376638318E+002     0.450000000000E+000    -0.270924430131E+000    -0.641561081577E+001     0.284446925927E+003
     0.525000000000E+002     0.197202959732E+002     0.450000000000E+000    -0.271052958071E+000    -0.641914563942E+001     0.287659358823E+003
     0.530000000000E+002     0.198003985884E+002     0.450000000000E+000    -0.271224844894E+000    -0.642254554361E+001     0.290873493783E+003
     0.535000000000E+002     0.198780494898E+002     0.450000000000E+000    -0.271312560497E+000    -0.642586454150E+001     0.294089288615E+003
     0.540000000000E+002     0.199533238538E+002     0.450000000000E+000    -0.271476197435E+000    -0.642906183539E+001     0.297306684123E+003
     0.545000000000E+002     0.200263066316E+002     0.450000000000E+000    -0.271206281984E+000    -0.643220737469E+001     0.300525645312E+003
     0.550000000000E+002     0.200970436107E+002     0.450000000000E+000    -0.271695872049E+000    -0.643517930561E+001     0.303746101466E+003
     0.555000000000E+002     0.201656198610E+002     0.450000000000E+000    -0.271794024111E+000    -0.643810831366E+001     0.306968022890E+003
     0.560000000000E+002     0.202321051677E+002     0.450000000000E+000    -0.271895664505E+000    -0.644092698436E+001     0.310191354538E+003
     0.565000000000E+002     0.202965768670E+002     0.450000000000E+000    -0.271583212579E+000    -0.644376018100E+001     0.313416094943E+003
     0.570000000000E+002     0.203590763173E+002     0.450000000000E+000    -0.272086210417E+000    -0.644633060958E+001     0.316642130019E+003
     0.575000000000E+002     0.204196866208E+002     0.450000000000E+000    -0.271798440523E+000    -0.644897184432E+001     0.319869478475E+003
     0.580000000000E+002     0.204784570583E+002     0.450000000000E+000    -0.271887136996E+000    -0.645146096980E+001     0.323098072258E+003
     0.585000000000E+002     0.205354325835E+002     0.450000000000E+000    -0.272375202774E+000    -0.645379203029E+001     0.326327840819E+003
     0.590000000000E+002     0.205906919748E+002     0.450000000000E+000    -0.272067666328E+000    -0.645618702628E+001     0.329558799335E+003
     0.595000000000E+002     0.206442768308E+002     0.450000000000E+000    -0.272154203629E+000    -0.645843337652E+001     0.332790881852E+003
     0.600000000000E+002     0.206962369783E+002     0.450000000000E+000    -0.272255716721E+000    -0.646065141287E+001     0.336024074541E+003
     0.605000000000E+002     0.207466229149E+002     0.450000000000E+000    -0.272337034404E+000    -0.646278279405E+001     0.339258333687E+003
     0.610000000000E+002     0.207954858554E+002     0.450000000000E+000    -0.272406734915E+000    -0.646482611137E+001     0.342493615054E+003
     0.615000000000E+002     0.208428729436E+002     0.450000000000E+000    -0.272488663184E+000    -0.646680256971E+001     0.345729885498E+003
     0.620000000000E+002     0.208888174913E+002     0.450000000000E+000    -0.272973921346E+000    -0.646864114607E+001     0.348967084636E+003
     0.625000000000E+002     0.209333889597E+002     0.450000000000E+000    -0.272645574854E+000    -0.647058971324E+001     0.352205250276E+003
     0.630000000000E+002     0.209766151771E+002     0.450000000000E+000    -0.272691140389E+000    -0.647244204151E+001     0.355444342218E+003
     0.635000000000E+002     0.210185373818E+002     0.450000000000E+000    -0.272775830033E+000    -0.647419246023E+001     0.358684310376E+003
     0.640000000000E+002     0.210591946894E+002     0.450000000000E+000    -0.272840225450E+000    -0.647590483168E+001     0.361925135317E+003
     0.645000000000E+002     0.210986131254E+002     0.450000000000E+000    -0.273278973508E+000    -0.647748643300E+001     0.365166759597E+003
     0.650000000000E+002     0.211368540830E+002     0.450000000000E+000    -0.272966041725E+000    -0.647916638047E+001     0.368409216514E+003
     0.655000000000E+002     0.211739430514E+002     0.450000000000E+000    -0.273022202763E+000    -0.648068590629E+001     0.371652433703E+003
     0.660000000000E+002     0.212099128039E+002     0.450000000000E+000    -0.273090164501E+000    -0.648218264706E+001     0.374896400029E+003
     0.665000000000E+002     0.212447860583E+002     0.450000000000E+000    -0.273527801456E+000    -0.648358958693E+001     0.378141078418E+003
     0.670000000000E+002     0.212786101617E+002     0.450000000000E+000    -0.273542852684E+000    -0.648493567390E+001     0.381386429570E+003
     0.675000000000E+002     0.213114285475E+002     0.450000000000E+000    -0.273213915919E+000    -0.648643509568E+001     0.384632522841E+003
     0.680000000000E+002     0.213432466720E+002     0.450000000000E+000    -0.273661540124E+000    -0.648768033836E+001     0.387879247606E+003
